Frequency (Hz),Trace th (*),Trace |Z| (Ohm)
1000.000000000001,-53.80703334478706,332.9272625053189
1013.91138573668,-53.35395194005736,330.8464035911255
1028.016298126475,-52.93836155493605,328.8877909320879
1042.317429393305,-52.50477803734402,326.9301867136441
1056.81750921366,-52.08512659864787,325.0008878428416
1071.519305237607,-51.65630353312364,323.1277191883772
1086.425623617067,-51.22477855965326,321.318858509286
1101.539309541416,-50.83359264864534,319.4546604830774
1116.863247780562,-50.41759679755388,317.7052351374483
1132.400363235558,-49.97696888488621,316.0092884896702
1148.153621496884,-49.57644082075807,314.2782927284029
1164.126029410492,-49.12017702942132,312.6404946708556
1180.320635651731,-48.71788094526002,310.9715066255382
1196.740531307244,-48.28717407957954,309.4038557220745
1213.388850464979,-47.88112451893485,307.7430371382045
1230.268770812382,-47.4398160280776,306.3020670477619
1247.383514242945,-47.02036617576841,304.7589260041539
1264.736347471152,-46.61431374898777,303.2945216471321
1282.330582656023,-46.19218444845274,301.8217104395526
1300.169578033291,-45.78034741260904,300.4623019459746
1318.256738556409,-45.33142848274166,299.0723709944667
1336.595516546443,-44.92017041185314,297.7315491574054
1355.189412351038,-44.53186815446053,296.3597564542894
1374.041975012516,-44.1080978963589,295.1201897124029
1393.156802945305,-43.68619617355565,293.7920875735459
1412.537544622755,-43.26958434006618,292.5114874837714
1432.187899273545,-42.83481423612822,291.291413578263
1452.111617587743,-42.43822572828405,290.1035056535022
1472.312502432721,-42.01186281790297,288.9437106771318
1492.794409578997,-41.5973497376693,287.8129950180409
1513.56124843621,-41.17709117019512,286.7411522104672
1534.616982799296,-40.80028924850389,285.5311283717116
1555.965631605077,-40.37252085540914,284.5284027790484
1577.61126969935,-39.97104504996071,283.477185377476
1599.558028614671,-39.57427468033432,282.3886413731228
1621.810097358931,-39.17501483561276,281.4039401126094
1644.371723214932,-38.74780126514409,280.4358949892423
1667.247212551064,-37.95014102985371,279.086737682396
1690.440931643265,-37.57794417595922,278.1891698594991
1713.957307508427,-37.15912042894081,277.2437893627536
1737.800828749376,-36.79010264521546,276.3125300960691
1761.976046411631,-36.39568488189467,275.5017549190607
1786.487574852052,-36.02369729679326,274.6302746785805
1811.340092619604,-35.61805464030516,273.7635972487299
1836.538343348347,-35.25246312453552,272.9361607984867
1862.087136662869,-34.85430872748271,272.2078253636267
1887.991349096294,-34.47189291692809,271.3980454051898
1914.255925021088,-34.12268354208543,270.5635046670404
1940.885877592779,-33.74207274655268,269.8651908024481
1967.886289706847,-33.36168485246731,269.0983997491172
1995.262314968881,-33.00188549458213,268.3706248684529
2023.019178678274,-32.64260085451185,267.6655483044589
2051.162178825567,-32.25869717318752,267.0226857855524
2079.696687103698,-31.91138887468174,266.3330671241562
2108.628149933291,-31.54580063186356,265.6700673500641
2137.962089502235,-31.18819841738114,265.0315951143244
2167.704104819696,-30.84302874626183,264.437857458389
2197.859872784828,-30.50661120739954,263.8079003482886
2228.435149270305,-30.14189544599783,263.1160813287594
2259.43577022098,-29.79123425269309,262.6712673648938
2290.867652767774,-29.449878406092,262.0457568539541
2322.73679635711,-29.1195739278025,261.4808895437622
2355.049283896011,-28.78318186680347,260.9006670955634
2387.811282913181,-28.45765049859126,260.4481511884539
2421.02904673618,-28.11635052932851,259.9721555971763
2454.708915685034,-27.820322882715,259.3204138841965
2488.857318282393,-27.49657009111412,258.9330492393525
2523.480772480578,-27.16393319219354,258.4146686529507
2558.585886905648,-26.8459572704676,257.9875629099727
2594.179362118818,-26.52684583043664,257.455053855566
2630.267991895385,-26.21366392924385,257.0264388298523
2666.858664521483,-25.92152148332165,256.5678505408367
2703.958364108846,-25.60580499946937,256.1835246885941
2741.574171927887,-25.30847513881338,255.6297449415787
2779.713267759291,-24.9960148093648,255.2438029184166
2818.382931264458,-24.69830265309499,254.8589444040356
2857.590543374949,-24.39344031595597,254.5038636662308
2897.343587701328,-24.10616772902892,254.1919098878306
2937.649651961533,-23.82752960921408,253.8432168320902
2978.516429429194,-23.52019327909859,253.482408036017
3019.951720402019,-23.25023695183413,253.0244930091857
3061.963433690682,-22.97171223439285,252.7226276263751
3104.559588128359,-22.67383970838978,252.3696697404291
3147.74831410132,-22.40907279137326,252.0350530511504
3191.537855100765,-22.12760517187685,251.7033668079743
3235.936569296288,-21.85441388109017,251.4557539558421
3280.952931131191,-21.60974226584603,251.1857895347942
3326.595532940047,-21.3279959061781,250.8716822444599
3372.873086588689,-21.07638426928899,250.4966275404424
3419.79442513709,-20.80446238787615,250.1731548010895
3467.368504525317,-20.54744899351752,249.9263619846272
3515.604405282983,-20.2839107101376,249.6701928283225
3564.511334262443,-20.05050573352712,249.4757418049753
3614.098626396135,-19.80589642295217,249.1269149841519
3664.375746478333,-19.55954174296053,248.8820015342355
3715.352290971728,-19.32377882373103,248.6788546186138
3767.037989839089,-19.09263976413409,248.3912914352074
3819.442708400468,-18.84448594549226,248.1911159064884
3872.576449216173,-18.60911900870653,247.9334781560292
3926.449353996001,-18.35707727252927,247.7405598463175
3981.071705534973,-18.14542384369099,247.5036497530402
4036.453929676053,-17.92012850143264,247.3102796692713
4092.60659730011,-17.68672934454132,247.1172821165873
4149.540426343632,-17.46692444476666,246.9292115199834
4207.266283844442,-17.23829699058675,246.6914201558738
4265.79518801593,-17.03728684347354,246.5360417655678
4325.138310350088,-16.81724942258583,246.2362109225028
4385.30697774986,-16.59027393400595,246.1514973042203
4446.312674691088,-16.39800629314162,245.9405425763221
4508.167045414605,-16.18629050708731,245.8154282217837
4570.881896148752,-15.98946875226309,245.545191936883
4634.469197362884,-15.79444379185747,245.408676406353
4698.941086052156,-15.59188711336129,245.2989169180162
4764.309868054161,-15.36852152462265,245.0499265468504
4830.588020397728,-15.18306157218111,244.94355355735
4897.788193684466,-14.99485866836013,244.7560068102179
4965.923214503363,-14.80401852018232,244.6287006202984
5035.006087879053,-14.62282199419037,244.4806442255988
5105.049999754065,-14.41329261574374,244.357956298331
5176.068319505681,-14.21958807818284,244.2784895707774
5248.074602497728,-14.05677748032535,244.0498841390875
5321.082592667947,-13.86566303583606,244.0410084959975
5395.106225151279,-13.70624359251254,243.8256379007298
5470.159628939721,-13.50724286550883,243.7192105896166
5546.25712957911,-13.36405428973013,243.5686774255697
5623.413251903497,-13.1743846260287,243.4731198487032
5701.642722807478,-13.02102008938427,243.3451485879024
5780.960474057187,-12.86337450336176,243.2168547145018
5861.381645140291,-12.68118721650211,243.1758014263315
5942.921586155733,-12.51297115717411,243.0017637656599
6025.59586074358,-12.35547214256991,242.9531558340803
6109.420249055726,-12.1954514712257,242.8039863795389
6194.410750767818,-12.02969444447053,242.647974186252
6280.583588133187,-11.87592823626271,242.490426406215
6367.955209079162,-11.73267332913063,242.6148604050654
6456.542290346562,-11.57728147546867,242.388403126265
6546.361740672754,-11.41853884875542,242.3251674692643
6637.430704019096,-11.28297862234339,242.1983802872354
6729.766562843181,-11.12211972108948,242.0990978907155
6823.386941416704,-10.9751984023348,242.0255905260203
6918.30970918937,-10.82436096166057,241.9327535580225
7014.552984199721,-10.69958602573671,241.8950119618592
7112.135136533296,-10.55846251005668,241.819772223603
7211.074791829004,-10.42021670392247,241.6965214641186
7311.39083483418,-10.29758999826277,241.6620881869061
7413.102413009185,-10.14175524059948,241.6371590492861
7516.228940182061,-10.02856290465788,241.5391377607081
7620.79010025413,-9.884376210669652,241.5105082651462
7726.805850957029,-9.78486886131695,241.3966787053774
7834.296427662129,-9.639679533535586,241.2903036451916
7943.282347242821,-9.513969488007291,241.245735150443
8053.784411990678,-9.384030260032919,241.1379450886051
8165.823713585931,-9.245423129894821,241.1307316124534
8279.421637123352,-9.121000143078392,241.0087336106192
8394.599865193981,-9.024369253712633,240.9939843439986
8511.380382023775,-8.901830725545665,240.9553250305029
8629.78547766971,-8.779078296960988,240.8526590226563
8749.837752274372,-8.673245430907709,240.7812742896524
8871.560120379616,-8.551558996700045,240.7123886992545
8994.975815300364,-8.466875381967624,240.7993646485398
9120.108393559105,-8.32311318699672,240.6612869369879
9246.98173938224,-8.218237959849995,240.6264551984292
9375.620069258812,-8.095080987178472,240.5959958976249
9506.047936562829,-8.02177557263208,240.4882477158857
9638.290236239714,-7.886398287842849,240.4458536371551
9772.372209558122,-7.798215467118206,240.41270878453
9908.319448927685,-7.668047145031742,240.445245457064
10046.15790278396,-7.606444976527502,240.2584112398886
10185.91388054118,-7.50093355292481,240.3221409928196
10327.61405761399,-7.396212232083412,240.1269567738351
10471.28548050901,-7.291731552649392,240.1679852892206
10616.95557198726,-7.178938735017099,240.1294237135263
10764.65213629836,-7.101465648121919,240.1704263648599
10914.40336448757,-7.015153542037917,240.0987802082201
11066.23783977667,-6.907716814349999,240.1212358090159
11220.18454301964,-6.840548218051428,240.0004110072915
11376.27285823432,-6.710243562577689,240.0259636979808
11534.53257821093,-6.64133980355534,239.9099089409368
11694.99391019872,-6.567280613638683,239.8946358759178
11857.68748167161,-6.477075364643704,239.9255161716092
12022.64434617414,-6.377802905316372,239.8523646302961
12189.89598924867,-6.300038741414635,239.827980876991
12359.47433444511,-6.197389847248749,239.7307565152857
12531.41174941417,-6.11489509964177,239.7021888517299
12705.74105208543,-6.064442938615429,239.7164452702141
12882.49551693135,-5.968723797033675,239.7079735729398
13061.70888131842,-5.888111165193466,239.7532329726476
13243.41535194666,-5.80597212068992,239.6844803145918
13427.64961137865,-5.743492427219708,239.6221934588007
13614.44682465951,-5.643878879917493,239.587143311733
13803.84264602886,-5.587330303890747,239.6262949429061
13995.87322572619,-5.489350877031057,239.5432917912557
14190.57521689093,-5.443868100718026,239.5223218124643
14387.98578255847,-5.362647895770171,239.4641458033293
14588.1426027535,-5.268466840282935,239.4171305798579
14791.08388168209,-5.206971687136623,239.4715021915258
14996.84835502375,-5.152172134431674,239.4103219352565
15205.47529732497,-5.062054536528786,239.4347944484864
15417.00452949561,-4.99516696496188,239.3110487233296
15631.47642640956,-4.940801065906367,239.4275426452939
15848.93192461115,-4.890410827783237,239.3992968147876
16069.41253012879,-4.805767820616341,239.3909893406228
16292.96032639724,-4.742918219731394,239.2635995687501
16519.61798229016,-4.680462677796148,239.2853304294488
16749.42876026437,-4.619727801853195,239.3121667581514
16982.43652461744,-4.534903031581747,239.2298323404354
17218.68574986007,-4.491403307692374,239.1730281496093
17458.22152920504,-4.430118499714118,239.2939819426418
17701.08958317421,-4.369615310954218,239.2489322123363
17947.33626832527,-4.315923853917101,239.1136003899767
18197.00858609984,-4.268058491407195,239.2059069832723
18450.15419179474,-4.177099811472642,239.1535092937225
18706.82140365801,-4.125892414638871,239.076621432029
18967.05921211146,-4.081329255252222,239.2090511397866
19230.91728910159,-4.000197123675459,239.0305293105809
19498.44599758046,-3.997565376845496,239.1733080890497
19769.69640111861,-3.921213366044938,239.1108804880345
20044.72027365162,-3.886762704385367,239.0737864015642
20323.57010936222,-3.81020892019744,238.899836078581
20606.29913270001,-3.787726025014688,239.2616363181855
20892.96130854039,-3.705767753917487,239.0078133825761
21183.61135248502,-3.680041118124227,239.0256959128617
21478.30474130534,-3.608322741872331,238.9022831177172
21777.09772353159,-3.548830807002603,239.0230359646707
22080.047330189,-3.51606616759775,239.1248589492482
22387.2113856834,-3.484168435175027,239.0027495228282
22698.64851883822,-3.396814254155601,239.1148889428599
23014.41817408509,-3.372779712981298,239.0300249908375
23334.58062281003,-3.33971876137349,238.9690699954236
23659.19697485759,-3.295353120609773,238.8412832946518
23988.32919019491,-3.229358852871809,239.0135932716536
24322.04009073816,-3.194695180627526,239.0141750748358
24660.3933723434,-3.15351403531176,238.978086365817
25003.45361696432,-3.114392733611998,238.9470948541126
25351.28630497908,-3.052718455741628,238.806877290859
25703.95782768865,-3.019069736241176,238.7869430159167
26061.53549998896,-3.001222047543237,238.9711835258655
26424.08757321947,-2.934528189640527,238.7752872316451
26791.68324819033,-2.904489204698739,238.7836452110357
27164.39268839084,-2.824942606502325,238.8613161524649
27542.28703338168,-2.821225165852112,238.758870523044
27925.43841237339,-2.79679147904308,238.7257636669374
28313.9199579938,-2.748789860663034,238.8186101815689
28707.80582024692,-2.725966975174635,238.7425015923167
29107.17118066607,-2.676779720902901,238.9109744175272
29512.09226666387,-2.637270797395654,238.8312944923497
29922.64636608191,-2.60986020597603,238.7601233458852
30338.91184194272,-2.552760043615752,238.8421468755647
30760.9681474071,-2.535360352944481,238.9418643344612
31188.89584093939,-2.486283494307308,238.8351147900225
31622.77660168381,-2.486808638712743,238.6455911795736
32062.69324505467,-2.427869452129007,238.9170372770757
32508.72973854345,-2.414950843522163,238.833630282317
32960.97121774579,-2.381089595170327,238.8594462132186
33419.50400261144,-2.334032270133867,238.7642584251583
33884.41561392028,-2.317038654546421,238.7578048902027
34355.79478998748,-2.253320417378449,238.7559085092515
34833.7315036012,-2.20937591373844,238.7436549695201
35318.31697919572,-2.230120444127527,238.542224706611
35809.64371026362,-2.163094691076215,238.5621514516456
36307.80547701016,-2.105186481191532,238.8108259389763
36812.89736425316,-2.101330645949628,238.7661798188096
37325.01577957208,-2.072727936166333,238.6687241776332
37844.25847170936,-2.070555941854584,238.7811360395203
38370.7245492279,-2.038050199611216,238.6980423736302
38904.51449942809,-1.980725827793821,238.6920452817585
39445.73020752787,-1.943623222915979,238.8572805533013
39994.47497610978,-1.971815532129935,238.5840446026792
40550.85354483841,-1.906806714798063,238.6828956540129
41114.97211045225,-1.897766402395953,238.7133323404655
41686.93834703357,-1.884585086437309,238.7437395727814
42266.86142656033,-1.795150962155762,238.6762114943406
42854.85203974399,-1.83572089366859,238.5517336461419
43451.02241715719,-1.824500500487361,238.8456715167233
44055.48635065537,-1.780606388213876,238.3901219842364
44668.35921509634,-1.711624940689848,238.6042583045202
45289.75799036211,-1.732337427472924,238.5626740150504
45919.80128368689,-1.710875113864733,238.5417661869526
46558.60935229593,-1.66567231993504,238.5892696665519
47206.30412635909,-1.653555119769639,238.6209437477092
47863.00923226388,-1.617419150188549,238.5701194184677
48528.85001621215,-1.635331736796198,238.6826073870645
49203.95356814509,-1.6292475900928,238.7099187331416
49888.44874600122,-1.556898405813793,238.6377412995527
50582.4662003114,-1.528889574870811,238.6562865799892
51286.13839913649,-1.512932661340129,238.6777152664408
51999.59965335159,-1.473403129450583,238.7357094625847
52722.98614228227,-1.415949080024265,238.5602944655611
53456.43593969716,-1.442711085047352,238.6248547126798
54200.08904016238,-1.401149563510743,238.7845145707086
54954.08738576245,-1.316848869901672,238.5180330125244
55718.57489319298,-1.370840029915305,238.5951810609523
56493.69748123025,-1.353756980803018,238.6924340597678
57279.60309858293,-1.370842998974226,238.713674537569
58076.44175213121,-1.359440033158036,238.5797598080167
58884.3655355589,-1.307623648650511,238.616668986228
59703.52865838369,-1.288338885882337,238.7619711514437
60534.08747539136,-1.285955973673656,238.5620704419927
61376.20051647942,-1.258225897143372,238.4694632522389
62230.02851691595,-1.212461117774922,238.5969636776577
63095.73444801933,-1.230959673099769,238.3512923924084
63973.48354826482,-1.205571607278941,238.5787737722245
64863.44335482384,-1.165441587905685,238.6303476320625
65765.78373554205,-1.151997888983175,238.6256385571261
66680.67692136222,-1.141022543128474,238.7829912097667
67608.29753919819,-1.055511565353733,238.7511082871119
68548.82264526616,-1.11083410675914,238.6536068606411
69502.4317588797,-1.123528534046514,238.6675992464742
70469.30689671471,-1.088761943511766,238.5613269101276
71449.63260755134,-1.073666777324619,238.7186659665081
72443.59600749903,-1.115311925805728,238.6239941228323
73451.38681571151,-1.047930563394946,238.5278701466112
74473.19739059891,-1.056586127172678,238.7411496054212
75509.22276654342,-1.01623382451133,238.5478204801783
76559.66069112565,-0.9689650451733856,238.6185948305968
77624.71166286919,-0.9928281239169613,238.4729310723633
78704.57896950988,-1.053727705044735,238.7752720762391
79799.46872679768,-0.973885885395034,238.5781130999398
80909.58991783825,-0.9489091255896756,238.5706480962197
82035.15443298186,-0.9483903146866212,238.5900664603679
83176.37711026713,-0.9279980283197974,238.4162297426556
84333.47577642757,-0.8992350809242095,238.8789679241808
85506.67128846837,-0.9031397973009537,238.6539703503702
86696.18757582171,-0.9300168045177092,238.5697540852468
87902.25168308846,-0.8766183368004148,238.3510918989583
89125.09381337459,-0.8603483526923782,238.6219025283364
90364.94737223018,-0.8584260380280475,238.8266119092829
91622.04901220002,-0.861518521906679,238.4023747984938
92896.63867799367,-0.8192455558059458,238.575783324536
94188.95965228417,-0.8520095889426987,238.5726072524859
95499.25860214364,-0.8117476736099007,238.5138392941217
96827.78562612495,-0.7749996461153729,238.6213384043299
98174.7943019985,-0.8166247402113911,238.2957013057399
99540.54173515274,-0.7525403169741877,238.4516536887021
100925.2886076685,-0.7612363659810585,238.470787249121
102329.2992280755,-0.7508628521894722,238.4540139709638
103752.8415818013,-0.7565273093453523,238.6476505318468
105196.1873823224,-0.73819291442917,238.5761240545933
106659.6121230258,-0.7709513343039004,238.2568414389938
108143.3951297939,-0.7114406543684864,238.4037220795165
109647.8196143186,-0.7275103941795954,238.5121549963522
111173.1727281592,-0.6823228117452306,238.5818642166602
112719.7456175511,-0.6818959348599613,238.2777900461718
114287.8334789772,-0.6684671114033235,238.4915872530054
115877.7356155126,-0.6019193881103302,238.4446216090952
117489.7554939529,-0.673948260846568,238.3726118318887
119124.2008027375,-0.6936993857750672,238.2282227031518
120781.383510678,-0.6259534149693026,238.2657986695064
122461.6199265049,-0.6063795016189948,238.4615363343399
124165.2307592411,-0.5687128490100647,238.4265961477141
125892.5411794167,-0.6188962289230171,238.25036090857
127643.8808811344,-0.5873295330687626,238.3981134256426
129419.5841449986,-0.5873072537738304,238.3512768227012
131219.9899019203,-0.6052686251931071,238.4485652030565
133045.4417978091,-0.5789869648908559,238.5316159700789
134896.2882591654,-0.6162342895714805,238.3145711292026
136772.8825595849,-0.5262000248067565,238.0582366015035
138675.5828871889,-0.5347781795390814,238.2429901003414
140604.7524129914,-0.5329748045287103,238.3764962291008
142560.7593602188,-0.5359143364279465,238.2320372793856
144543.9770745928,-0.5360502062921978,238.3109194182802
146554.7840955912,-0.5507043285120837,238.2675124837771
148593.5642287007,-0.4833284245438139,238.0700503875302
